# Energy(eV) COHP
-5.870350552007562506e+00 -4.828928168327784563e-04
-5.770350552007562861e+00 -7.989304483449386450e-04
-5.670350552007563216e+00 -1.188689152554177775e-03
-5.570350552007563572e+00 -1.601559390680224728e-03
-5.470350552007563927e+00 -1.985384094456688325e-03
-5.370350552007564282e+00 -2.341259150700229254e-03
-5.270350552007564637e+00 -2.780250342841710919e-03
-5.170350552007564993e+00 -3.539757876302019809e-03
-5.070350552007565348e+00 -4.923417130364953452e-03
-4.970350552007565703e+00 -7.163620469646164723e-03
-4.870350552007566058e+00 -1.025750273320984521e-02
-4.770350552007566414e+00 -1.386524644128318655e-02
-4.670350552007566769e+00 -1.734873338010518504e-02
-4.570350552007567124e+00 -1.995929220249692895e-02
-4.470350552007567480e+00 -2.109525971820622528e-02
-4.370350552007567835e+00 -2.050920670736452664e-02
-4.270350552007568190e+00 -1.838116201651927156e-02
-4.170350552007568545e+00 -1.525209497456622883e-02
-4.070350552007568901e+00 -1.187057819209171895e-02
-3.970350552007569256e+00 -9.017599644252905638e-03
-3.870350552007569611e+00 -7.352768742129213095e-03
-3.770350552007569966e+00 -7.294059247185335007e-03
-3.670350552007570322e+00 -8.926240316138077738e-03
-3.570350552007570677e+00 -1.194969959471269862e-02
-3.470350552007571032e+00 -1.572118545251663391e-02
-3.370350552007571387e+00 -1.944457386640255706e-02
-3.270350552007571743e+00 -2.249019027688850536e-02
-3.170350552007572098e+00 -2.468904104593546561e-02
-3.070350552007572453e+00 -2.638718293379574420e-02
-2.970350552007572809e+00 -2.815622196029887031e-02
-2.870350552007573164e+00 -3.029699993195902191e-02
-2.770350552007573519e+00 -3.246672494018555677e-02
-2.670350552007573874e+00 -3.372789815673378488e-02
-2.570350552007574230e+00 -3.304184505293379648e-02
-2.470350552007574585e+00 -2.989921900787750539e-02
-2.370350552007574940e+00 -2.466239464260550421e-02
-2.270350552007575295e+00 -1.840247598278673888e-02
-2.170350552007575651e+00 -1.237817205704938583e-02
-2.070350552007576006e+00 -7.521706512991711141e-03
-1.970350552007576361e+00 -4.217677548802778800e-03
-1.870350552007576717e+00 -2.405155120322406952e-03
-1.770350552007577072e+00 -1.833169174533217033e-03
-1.670350552007577427e+00 -2.272488284761489587e-03
-1.570350552007577782e+00 -3.582375334993991804e-03
-1.470350552007578138e+00 -5.643193349127623853e-03
-1.370350552007578493e+00 -8.234573099007734542e-03
-1.270350552007578848e+00 -1.095744086621814641e-02
-1.170350552007579203e+00 -1.327137487153754597e-02
-1.070350552007579559e+00 -1.465140872895700011e-02
-9.703505520075799140e-01 -1.478756458479500886e-02
-8.703505520075802693e-01 -1.371023795815624197e-02
-7.703505520075806245e-01 -1.176558469002693917e-02
-6.703505520075809798e-01 -9.464679314868671214e-03
-5.703505520075813351e-01 -7.308956453845149095e-03
-4.703505520075816904e-01 -5.686958239881936134e-03
-3.703505520075820456e-01 -4.856967783215830094e-03
-2.703505520075824009e-01 -4.954961010894131865e-03
-1.703505520075827562e-01 -5.964566258232944715e-03
-7.035055200758311145e-02 -7.652760584179766831e-03
2.964944799241653328e-02 -9.546953466971938931e-03
1.296494479924161780e-01 -1.103404317725247864e-02
2.296494479924158227e-01 -1.158104906978957294e-02
3.296494479924154675e-01 -1.096898778105820718e-02
4.296494479924151122e-01 -9.393377039766457118e-03
5.296494479924147569e-01 -7.361516584945228779e-03
6.296494479924144017e-01 -5.450019937657772998e-03
7.296494479924140464e-01 -4.066112997722468210e-03
8.296494479924136911e-01 -3.329232372195397010e-03
9.296494479924133358e-01 -3.098714335905135547e-03
1.029649447992412981e+00 -3.097243651676255018e-03
1.129649447992412625e+00 -3.055038679358679059e-03
1.229649447992412270e+00 -2.813596892232507300e-03
1.329649447992411915e+00 -2.357569347813493615e-03
1.429649447992411559e+00 -1.778003815678394842e-03
1.529649447992411204e+00 -1.199972997481992291e-03
1.629649447992410849e+00 -7.176830725475089002e-04
1.729649447992410494e+00 -3.647578378581196401e-04
1.829649447992410138e+00 -1.200187180193467535e-04
1.929649447992409783e+00 6.929811390065568463e-05
2.029649447992409428e+00 2.651615593231773237e-04
2.129649447992409073e+00 5.244833870098886131e-04
2.229649447992408717e+00 8.901234330755789133e-04
2.329649447992408362e+00 1.381546525273564217e-03
2.429649447992408007e+00 1.983560769414693080e-03
2.529649447992407651e+00 2.638274362265798003e-03
2.629649447992407296e+00 3.249435840449846607e-03
2.729649447992406941e+00 3.705000335974468692e-03
2.829649447992406586e+00 3.913016212349343034e-03
2.929649447992406230e+00 3.834982091238052504e-03
3.029649447992405875e+00 3.499491312111594355e-03
3.129649447992405520e+00 2.989747155125481535e-03
3.229649447992405165e+00 2.413162285497272037e-03
3.329649447992404809e+00 1.869177011891086935e-03
3.429649447992404454e+00 1.429524242238168702e-03
3.529649447992404099e+00 1.137341576844134571e-03
3.629649447992403744e+00 1.021868149612717176e-03
3.729649447992403388e+00 1.116326704962236757e-03
3.829649447992403033e+00 1.462203508037559097e-03
3.929649447992402678e+00 2.089346265907776872e-03
4.029649447992402322e+00 2.978501769226181168e-03
4.129649447992401967e+00 4.030779621289067895e-03
4.229649447992401612e+00 5.071661136188961028e-03
4.329649447992401257e+00 5.899323337045668872e-03
4.429649447992400901e+00 6.359554210699458650e-03
4.529649447992400546e+00 6.412229591003377506e-03
4.629649447992400191e+00 6.156991777681599352e-03
4.729649447992399836e+00 5.802391874074747970e-03
4.829649447992399480e+00 5.584351389510169329e-03
4.929649447992399125e+00 5.663903913678854443e-03
5.029649447992398770e+00 6.054748803645978311e-03
5.129649447992398414e+00 6.628355261974522641e-03
5.229649447992398059e+00 7.201948088169048134e-03
5.329649447992397704e+00 7.651863583836948472e-03
5.429649447992397349e+00 7.965751053568318266e-03
5.529649447992396993e+00 8.191338642076733192e-03
5.629649447992396638e+00 8.329717577606641707e-03
5.729649447992396283e+00 8.275720600657518813e-03
5.829649447992395928e+00 7.869452270829895707e-03
5.929649447992395572e+00 7.022650295674217821e-03
6.029649447992395217e+00 5.815406688102684601e-03
6.129649447992394862e+00 4.484600675246818574e-03
6.229649447992394506e+00 3.314378941303859714e-03
6.329649447992394151e+00 2.507410656587776617e-03
6.429649447992393796e+00 2.114325516437110756e-03
6.529649447992393441e+00 2.048865210204633188e-03
6.629649447992393085e+00 2.167820795379640179e-03
6.729649447992392730e+00 2.372937666597867059e-03
6.829649447992392375e+00 2.689914310086195717e-03
6.929649447992392020e+00 3.286230444004904251e-03
7.029649447992391664e+00 4.406491234909687416e-03
7.129649447992391309e+00 6.237815484754159409e-03
7.229649447992390954e+00 8.763434539873153628e-03
7.329649447992390598e+00 1.169569535914869070e-02
7.429649447992390243e+00 1.456648684343584896e-02
7.529649447992389888e+00 1.697957737468151415e-02
7.629649447992389533e+00 1.892550029141456397e-02
7.729649447992389177e+00 2.098641430075454811e-02
7.829649447992388822e+00 2.426360047031040496e-02
7.929649447992388467e+00 2.995651825510788763e-02
8.029649447992387223e+00 3.869815796741703229e-02
8.129649447992388644e+00 4.995531646526964881e-02
8.229649447992386513e+00 6.189770969639389608e-02
8.329649447992387934e+00 7.196020422273313732e-02
8.429649447992385802e+00 7.788233529631813368e-02
8.529649447992387223e+00 7.862932512132844720e-02
8.629649447992385092e+00 7.465933861646782688e-02
8.729649447992386513e+00 6.749661041287585705e-02
8.829649447992384381e+00 5.903315442346111774e-02
8.929649447992385802e+00 5.098622626501246591e-02
9.029649447992383671e+00 4.458947332542131936e-02
9.129649447992385092e+00 4.036887282892950152e-02
9.229649447992382960e+00 3.798595318879725152e-02
9.329649447992384381e+00 3.635245262812773076e-02
9.429649447992382250e+00 3.415491198369637049e-02
9.529649447992383671e+00 3.058663372337619424e-02
9.629649447992381539e+00 2.584464037382684654e-02
9.729649447992382960e+00 2.108631772924152159e-02
9.829649447992380829e+00 1.792047110328509607e-02
9.929649447992382250e+00 1.777076045796222373e-02
1.002964944799238012e+01 2.140910133021948700e-02
1.012964944799238154e+01 2.874287885189899527e-02
1.022964944799238296e+01 3.879239077613707426e-02
1.032964944799238083e+01 4.980690177529794455e-02
1.042964944799237870e+01 5.954857409112732786e-02
1.052964944799238012e+01 6.578888726761690509e-02
1.062964944799238154e+01 6.696092731039986201e-02
1.072964944799237941e+01 6.275615995903569000e-02
1.082964944799237728e+01 5.437936211736722758e-02
1.092964944799237870e+01 4.428555101644310321e-02
1.102964944799238012e+01 3.548305467943749930e-02
1.112964944799237799e+01 3.071098778954100064e-02
1.122964944799237585e+01 3.180594512778382732e-02
1.132964944799237728e+01 3.937535361220725894e-02
1.142964944799237870e+01 5.270401785135236244e-02
1.152964944799237657e+01 6.982288006449204054e-02
1.162964944799237443e+01 8.781211427830322436e-02
1.172964944799237585e+01 1.034443133837668061e-01
1.182964944799237728e+01 1.140528903930397436e-01
1.192964944799237514e+01 1.182362213363702952e-01
1.202964944799237301e+01 1.160468895089585839e-01
1.212964944799237443e+01 1.087179877343553841e-01
1.222964944799237585e+01 9.831028569507685444e-02
1.232964944799237372e+01 8.750452617373141728e-02
1.242964944799237159e+01 7.929760169104095591e-02
1.252964944799237301e+01 7.622605702834277241e-02
1.262964944799237443e+01 7.923003467746959905e-02
1.272964944799237230e+01 8.690926322015966876e-02
1.282964944799237017e+01 9.595515876313935599e-02
1.292964944799237159e+01 1.027783139877327251e-01
1.302964944799237301e+01 1.054125517060101741e-01
1.312964944799237088e+01 1.045066839887932725e-01
1.322964944799236875e+01 1.028467316165471573e-01
1.332964944799237017e+01 1.038093835859391356e-01
1.342964944799237159e+01 1.096662301305137005e-01
1.352964944799236946e+01 1.205068705789887201e-01
1.362964944799236733e+01 1.340788305582080453e-01
1.372964944799236875e+01 1.464635631854259157e-01
1.382964944799237017e+01 1.533233220472953739e-01
1.392964944799236804e+01 1.513574132669480155e-01
1.402964944799236591e+01 1.395232159896690194e-01
1.412964944799236733e+01 1.195535938477290672e-01
1.422964944799236875e+01 9.546061607549120864e-02
1.432964944799236662e+01 7.211787272889377820e-02
1.442964944799236449e+01 5.350145115633212628e-02
1.452964944799236591e+01 4.140478767256080411e-02
1.462964944799236733e+01 3.521062655603055674e-02
1.472964944799236520e+01 3.274255158273352284e-02
1.482964944799236306e+01 3.169045265289911067e-02
1.492964944799236449e+01 3.088646079797516264e-02
1.502964944799236591e+01 3.084618747079377610e-02
1.512964944799236378e+01 3.335775734628082523e-02
1.522964944799236164e+01 4.031803150550754278e-02
1.532964944799236306e+01 5.234020499859021874e-02
1.542964944799236449e+01 6.780961622908709963e-02
1.552964944799236235e+01 8.296893494277794712e-02
1.562964944799236022e+01 9.318948749497386885e-02
1.572964944799236164e+01 9.491621316929689522e-02
1.582964944799236306e+01 8.725581464945739163e-02
1.592964944799236093e+01 7.228800242262298226e-02
1.602964944799235880e+01 5.396073961507971001e-02
1.612964944799236022e+01 3.631263497147833169e-02
1.622964944799236164e+01 2.206230695583400250e-02
1.632964944799235951e+01 1.216709095447150203e-02
1.642964944799235738e+01 6.248622288839716585e-03
1.652964944799235880e+01 3.367582265539003153e-03
1.662964944799236022e+01 2.667559745620773793e-03
1.672964944799235809e+01 3.678127352211743497e-03
1.682964944799235596e+01 6.295352850895601961e-03
1.692964944799235738e+01 1.054968912114482779e-02
1.702964944799235880e+01 1.629054243959977138e-02
1.712964944799235667e+01 2.293895779240805524e-02
1.722964944799235454e+01 2.947428993383745602e-02
1.732964944799235596e+01 3.475293944688459535e-02
1.742964944799235738e+01 3.807041369839132827e-02
1.752964944799235525e+01 3.965809217625958227e-02
1.762964944799235312e+01 4.073520366577116497e-02
1.772964944799235454e+01 4.294422579970388204e-02
1.782964944799235596e+01 4.740653491724741014e-02
1.792964944799235383e+01 5.395984002979074823e-02
1.802964944799235170e+01 6.109263450866275758e-02
1.812964944799235312e+01 6.664952339843376039e-02
1.822964944799235454e+01 6.885939242597910459e-02
1.832964944799235241e+01 6.704958008151123972e-02
1.842964944799235028e+01 6.169435731406711781e-02
1.852964944799235170e+01 5.394026297511069629e-02
1.862964944799235312e+01 4.504446279514847523e-02
1.872964944799235099e+01 3.607897248585360123e-02
1.882964944799234885e+01 2.795390626218758126e-02
1.892964944799235028e+01 2.157308481413415524e-02
1.902964944799235170e+01 1.789199989849764305e-02
1.912964944799234956e+01 1.775322317196387223e-02
1.922964944799234743e+01 2.152316440535379308e-02
1.932964944799234885e+01 2.869180884663670092e-02
1.942964944799235028e+01 3.769507276405439228e-02
1.952964944799234814e+01 4.620624900557976367e-02
1.962964944799234601e+01 5.194380117849507067e-02
1.972964944799234743e+01 5.371611707901768895e-02
1.982964944799234885e+01 5.219175540923284146e-02
1.992964944799234672e+01 4.994382980404754591e-02
2.002964944799234459e+01 5.063626067669908110e-02
2.012964944799234601e+01 5.758109506943109857e-02
2.022964944799234743e+01 7.214455703093243522e-02
2.032964944799234530e+01 9.262047187283027616e-02
2.042964944799234317e+01 1.142083796318885819e-01
2.052964944799234459e+01 1.304479854393981730e-01
2.062964944799234601e+01 1.357509316156153834e-01
2.072964944799234388e+01 1.278639286192219116e-01
2.082964944799234175e+01 1.088944966751360932e-01
2.092964944799234317e+01 8.430951497103593428e-02
2.102964944799234459e+01 6.057424769653987212e-02
2.112964944799234246e+01 4.282467360209812890e-02
2.122964944799234033e+01 3.363692961643885426e-02
2.132964944799234175e+01 3.302444629382296493e-02
2.142964944799234317e+01 3.912280962336652651e-02
2.152964944799234104e+01 4.901645556223248323e-02
2.162964944799233891e+01 5.951492446687455667e-02
2.172964944799234033e+01 6.788648800204809264e-02
2.182964944799234175e+01 7.245093561578640207e-02
2.192964944799233962e+01 7.279283032368626116e-02
2.202964944799233749e+01 6.947772206324549782e-02
2.212964944799233891e+01 6.348072891524680905e-02
2.222964944799234033e+01 5.572424029637687570e-02
2.232964944799233820e+01 4.695451807262927130e-02
2.242964944799233606e+01 3.784814220729256634e-02
2.252964944799233749e+01 2.908582174624785299e-02
2.262964944799233891e+01 2.127257567286636522e-02
2.272964944799233677e+01 1.479765019393517074e-02
2.282964944799233464e+01 9.776220165595164713e-03
2.292964944799233606e+01 6.105302805429621386e-03
2.302964944799233749e+01 3.565230139471437833e-03
2.312964944799233535e+01 1.898406607938330588e-03
2.322964944799233322e+01 8.520884887014845309e-04
2.332964944799233464e+01 2.047229739202991805e-04
2.342964944799233606e+01 -2.105967541313128312e-04
2.352964944799233393e+01 -4.893049906200252217e-04
2.362964944799233180e+01 -6.567567031148306657e-04
2.372964944799233322e+01 -6.965652239061183738e-04
2.382964944799233464e+01 -6.036844267924940891e-04
2.392964944799233251e+01 -4.418041831490553432e-04
2.402964944799233038e+01 -3.677905710519431461e-04
2.412964944799233180e+01 -5.897077706866095522e-04
2.422964944799233322e+01 -1.261147860307937308e-03
2.432964944799233109e+01 -2.366048135904408323e-03
2.442964944799232896e+01 -3.673636406829093506e-03
2.452964944799233038e+01 -4.811947042042734324e-03
2.462964944799233180e+01 -5.433719518859973265e-03
2.472964944799232967e+01 -5.384197575779598767e-03
2.482964944799232754e+01 -4.778030659894987563e-03
2.492964944799232896e+01 -3.954692277125114626e-03
2.502964944799233038e+01 -3.355913750233258195e-03
2.512964944799232825e+01 -3.394207259384181882e-03
2.522964944799232612e+01 -4.349800793666100743e-03
2.532964944799232754e+01 -6.295220582211125473e-03
2.542964944799232896e+01 -9.054681758827159282e-03
2.552964944799232683e+01 -1.224594947373403020e-02
2.562964944799232470e+01 -1.544931813017375900e-02
2.572964944799232612e+01 -1.845159897338045224e-02
2.582964944799232754e+01 -2.138736598994987054e-02
2.592964944799232541e+01 -2.459694068517168097e-02
2.602964944799232327e+01 -2.821992070117348289e-02
2.612964944799232470e+01 -3.181505127936386929e-02
2.622964944799232612e+01 -3.437648317659126179e-02
2.632964944799232754e+01 -3.486384239814041552e-02
2.642964944799232185e+01 -3.295196058605414507e-02
2.652964944799232327e+01 -2.949015644881556805e-02
2.662964944799232470e+01 -2.633097830075177559e-02
2.672964944799231901e+01 -2.558641978366315434e-02
2.682964944799232043e+01 -2.867779824854001236e-02
2.692964944799232185e+01 -3.560666703318059872e-02
2.702964944799232327e+01 -4.476081634208781135e-02
2.712964944799232470e+01 -5.338357286677996444e-02
2.722964944799231901e+01 -5.858216149287729518e-02
2.732964944799232043e+01 -5.846427222434123078e-02
2.742964944799232185e+01 -5.285143552161804953e-02
2.752964944799231617e+01 -4.320701115053030006e-02
2.762964944799231759e+01 -3.186725578943697124e-02
2.772964944799231901e+01 -2.105393440083675252e-02
2.782964944799232043e+01 -1.219531887740974221e-02
2.792964944799232185e+01 -5.801564398703604360e-03
2.802964944799231617e+01 -1.781099338133592053e-03
2.812964944799231759e+01 1.146509954172991470e-04
2.822964944799231901e+01 8.574073718554172524e-06
2.832964944799231333e+01 -2.092371433277311586e-03
2.842964944799231475e+01 -6.050373131063663777e-03
2.852964944799231617e+01 -1.130572369930070431e-02
2.862964944799231759e+01 -1.677518843815795080e-02
2.872964944799231901e+01 -2.108239879022882901e-02
2.882964944799231333e+01 -2.305639216887743481e-02
2.892964944799231475e+01 -2.222858420580339778e-02
2.902964944799231617e+01 -1.901926674410896190e-02
2.912964944799231048e+01 -1.449474434020365729e-02
2.922964944799231191e+01 -9.859022899765711861e-03
2.932964944799231333e+01 -5.991752391695313699e-03
2.942964944799231475e+01 -3.255730662460406492e-03
2.952964944799231617e+01 -1.582253722991032755e-03
2.962964944799231048e+01 -6.879032617346382116e-04
2.972964944799231191e+01 -2.675802347402353974e-04
2.982964944799231333e+01 -9.312918729041425210e-05
2.992964944799230764e+01 -2.900278783073374363e-05
3.002964944799230906e+01 -8.082125580756576735e-06
3.012964944799231048e+01 -2.015342954047315434e-06
3.022964944799231191e+01 -4.496898244874611039e-07
3.032964944799231333e+01 -8.978829724448808134e-08
3.042964944799230764e+01 -1.604242599203128522e-08
3.052964944799230906e+01 -2.564865488266588871e-09
3.062964944799231048e+01 -3.669473301905426116e-10
3.072964944799230480e+01 -4.697725748192627070e-11
3.082964944799230622e+01 -5.381662884725900336e-12
3.092964944799230764e+01 -5.516838729998926706e-13
3.102964944799230906e+01 -5.060682542021340780e-14
3.112964944799231048e+01 -4.154061570194112647e-15
3.122964944799230480e+01 -3.051278188284569881e-16
3.132964944799230622e+01 -2.005560316790638732e-17
3.142964944799230764e+01 -1.179599835121179125e-18
3.152964944799230196e+01 -6.208386314969709494e-20
3.162964944799230338e+01 -2.923935703943976108e-21
